,iteration,exp_id,label_rate,num_categorical_cols,num_numeric_cols,num_instances,num_labeled_instances,num_unlabeled_instances,ada_boost,desicition_tree,gaussian_nb,gaussian_process,logistic_regression,mlp,random_forest,initial_auc,cur_next_clfs_ttest_stat,cur_next_clfs_ttest_pval,clf_backwards_1_steps_ttest_stat,clf_backwards_1_steps_ttest_pval,clf_backwards_2_steps_ttest_stat,clf_backwards_2_steps_ttest_pval,clf_backwards_3_steps_ttest_stat,clf_backwards_3_steps_ttest_pval,confidence_clf_avg,confidence_clf_min,confidence_clf_max,confidence_clf_median,confidence_clf_std,confidence_clf_stdev,confidence_clf_norm_dist_pval,confidence_clf_skew,confidence_clf_shapiro_pval,1_iters_back_1_place_ada_boost,1_iters_back_1_place_desicition_tree,1_iters_back_1_place_gaussian_nb,1_iters_back_1_place_gaussian_process,1_iters_back_1_place_logistic_regression,1_iters_back_1_place_mlp,1_iters_back_1_place_random_forest,1_iters_back_2_place_ada_boost,1_iters_back_2_place_desicition_tree,1_iters_back_2_place_gaussian_nb,1_iters_back_2_place_gaussian_process,1_iters_back_2_place_logistic_regression,1_iters_back_2_place_mlp,1_iters_back_2_place_random_forest,1_iters_back_3_place_ada_boost,1_iters_back_3_place_desicition_tree,1_iters_back_3_place_gaussian_nb,1_iters_back_3_place_gaussian_process,1_iters_back_3_place_logistic_regression,1_iters_back_3_place_mlp,1_iters_back_3_place_random_forest,2_iters_back_1_place_ada_boost,2_iters_back_1_place_desicition_tree,2_iters_back_1_place_gaussian_nb,2_iters_back_1_place_gaussian_process,2_iters_back_1_place_logistic_regression,2_iters_back_1_place_mlp,2_iters_back_1_place_random_forest,2_iters_back_2_place_ada_boost,2_iters_back_2_place_desicition_tree,2_iters_back_2_place_gaussian_nb,2_iters_back_2_place_gaussian_process,2_iters_back_2_place_logistic_regression,2_iters_back_2_place_mlp,2_iters_back_2_place_random_forest,2_iters_back_3_place_ada_boost,2_iters_back_3_place_desicition_tree,2_iters_back_3_place_gaussian_nb,2_iters_back_3_place_gaussian_process,2_iters_back_3_place_logistic_regression,2_iters_back_3_place_mlp,2_iters_back_3_place_random_forest,3_iters_back_1_place_ada_boost,3_iters_back_1_place_desicition_tree,3_iters_back_1_place_gaussian_nb,3_iters_back_1_place_gaussian_process,3_iters_back_1_place_logistic_regression,3_iters_back_1_place_mlp,3_iters_back_1_place_random_forest,3_iters_back_2_place_ada_boost,3_iters_back_2_place_desicition_tree,3_iters_back_2_place_gaussian_nb,3_iters_back_2_place_gaussian_process,3_iters_back_2_place_logistic_regression,3_iters_back_2_place_mlp,3_iters_back_2_place_random_forest,3_iters_back_3_place_ada_boost,3_iters_back_3_place_desicition_tree,3_iters_back_3_place_gaussian_nb,3_iters_back_3_place_gaussian_process,3_iters_back_3_place_logistic_regression,3_iters_back_3_place_mlp,3_iters_back_3_place_random_forest,rank,AUC_gap_from_top,AUC_gap_from_avg,AUC_gap_from_min,AUC_gap_from_top_1_steps_back,AUC_gap_from_avg_1_steps_back,AUC_gap_from_min_1_steps_back,AUC_gap_from_top_2_steps_back,AUC_gap_from_avg_2_steps_back,AUC_gap_from_min_2_steps_back,AUC_gap_from_top_3_steps_back,AUC_gap_from_avg_3_steps_back,AUC_gap_from_min_3_steps_back,chosen_classifier,evaluation,best_classifier
0,1,2021-08-20 16:53:19.890033,0.8,0,97,199,20,20,1,0,0,0,0,0,0,0.8,-0.40646942234852884,0.6866779287766873,0.0,0.0,0.0,0.0,0.0,0.0,0.1500000000000002,2.220446049250318e-16,0.9999999999999998,2.220446049250318e-16,0.3570714214271423,0.3663475485325231,0.0002544506245485666,3.4924336930924866,8.316843747024905e-08,0,0,0,0,0,0,0,0,0,0,0,0,0,0,0,0,0,0,0,0,0,0,0,0,0,0,0,0,0,0,0,0,0,0,0,0,0,0,0,0,0,0,0,0,0,0,0,0,0,0,0,0,0,0,0,0,0,0,0,0,0,0,0,3,1.0,1.2643171806167401,1.3898305084745763,0.0,0.0,0.0,0.0,0.0,0.0,0.0,0.0,0.0,random_forest,0.8039215686274509,0
1,1,2021-08-20 16:53:19.890033,0.8,0,97,199,20,20,0,1,0,0,0,0,0,0.8,0.40646942234853034,0.6866779287766862,0.0,0.0,0.0,0.0,0.0,0.0,0.2,0.0,1.0,0.0,0.4,0.41039134083406165,0.010846242872071747,2.8740994516559843,2.888745029849815e-07,0,0,0,0,0,0,0,0,0,0,0,0,0,0,0,0,0,0,0,0,0,0,0,0,0,0,0,0,0,0,0,0,0,0,0,0,0,0,0,0,0,0,0,0,0,0,0,0,0,0,0,0,0,0,0,0,0,0,0,0,0,0,0,0,0.7195121951219512,0.9096916299559471,1.0,0.0,0.0,0.0,0.0,0.0,0.0,0.0,0.0,0.0,random_forest,0.5784313725490196,0
2,1,2021-08-20 16:53:19.890033,0.8,0,97,199,20,20,0,0,1,0,0,0,0,0.8,-4.272568067300389,0.0001247707961788506,0.0,0.0,0.0,0.0,0.0,0.0,0.15,0.0,1.0,5.384620161747753e-133,0.3570714214271425,0.3663475485325232,0.00025445062454856714,3.492433693092486,8.316843747024905e-08,0,0,0,0,0,0,0,0,0,0,0,0,0,0,0,0,0,0,0,0,0,0,0,0,0,0,0,0,0,0,0,0,0,0,0,0,0,0,0,0,0,0,0,0,0,0,0,0,0,0,0,0,0,0,0,0,0,0,0,0,0,0,0,1,0.7560975609756098,0.9559471365638766,1.0508474576271187,0.0,0.0,0.0,0.0,0.0,0.0,0.0,0.0,0.0,random_forest,0.6078431372549019,0
3,1,2021-08-20 16:53:19.890033,0.8,0,97,199,20,20,0,0,0,1,0,0,0,0.8,5.028995029915226,1.2126422502167284e-05,0.0,0.0,0.0,0.0,0.0,0.0,0.499999385790291,0.49999042500919433,0.49999999500016656,0.4999999949983527,2.085263666109435e-06,2.1394353798180046e-06,1.7216660082508184e-11,-5.3222999519122345,1.009510430804994e-08,0,0,0,0,0,0,0,0,0,0,0,0,0,0,0,0,0,0,0,0,0,0,0,0,0,0,0,0,0,0,0,0,0,0,0,0,0,0,0,0,0,0,0,0,0,0,0,0,0,0,0,0,0,0,0,0,0,0,0,0,0,0,0,2,0.7926829268292683,1.002202643171806,1.1016949152542372,0.0,0.0,0.0,0.0,0.0,0.0,0.0,0.0,0.0,random_forest,0.6372549019607843,0
4,1,2021-08-20 16:53:19.890033,0.8,0,97,199,20,20,0,0,0,0,1,0,0,0.8,0.16796287763732262,0.8675032435120185,0.0,0.0,0.0,0.0,0.0,0.0,0.15637320365890847,0.0019693128692277236,0.9567765895148909,0.02483336888020308,0.29783918920554925,0.3055765605274879,0.0002416691663046754,3.4738037661588135,6.151831257739104e-07,0,0,0,0,0,0,0,0,0,0,0,0,0,0,0,0,0,0,0,0,0,0,0,0,0,0,0,0,0,0,0,0,0,0,0,0,0,0,0,0,0,0,0,0,0,0,0,0,0,0,0,0,0,0,0,0,0,0,0,0,0,0,0,1,0.7560975609756098,0.9559471365638766,1.0508474576271187,0.0,0.0,0.0,0.0,0.0,0.0,0.0,0.0,0.0,random_forest,0.6078431372549019,0
5,1,2021-08-20 16:53:19.890033,0.8,0,97,199,20,20,0,0,0,0,0,1,0,0.8,-0.3255270952966077,0.7465679166933721,0.0,0.0,0.0,0.0,0.0,0.0,0.13923869358816135,9.9746675549743e-06,0.9998344150699568,0.0003160104032301497,0.33018300586993266,0.33876061624895626,0.00012546973699496437,3.5734464216979394,1.197258114871147e-07,0,0,0,0,0,0,0,0,0,0,0,0,0,0,0,0,0,0,0,0,0,0,0,0,0,0,0,0,0,0,0,0,0,0,0,0,0,0,0,0,0,0,0,0,0,0,0,0,0,0,0,0,0,0,0,0,0,0,0,0,0,0,0,1,0.7560975609756098,0.9559471365638766,1.0508474576271187,0.0,0.0,0.0,0.0,0.0,0.0,0.0,0.0,0.0,random_forest,0.6078431372549019,0
6,1,2021-08-20 16:53:19.890033,0.8,0,97,199,20,20,0,0,0,0,0,0,1,0.8,0.20693793270239222,0.8371632423144657,0.0,0.0,0.0,0.0,0.0,0.0,0.17149999999999999,0.01,0.92,0.03,0.27855475224809934,0.2857911456769933,0.0004567758766018398,3.34292226061368,3.769372597162146e-06,0,0,0,0,0,0,0,0,0,0,0,0,0,0,0,0,0,0,0,0,0,0,0,0,0,0,0,0,0,0,0,0,0,0,0,0,0,0,0,0,0,0,0,0,0,0,0,0,0,0,0,0,0,0,0,0,0,0,0,0,0,0,0,1,0.7560975609756098,0.9559471365638766,1.0508474576271187,0.0,0.0,0.0,0.0,0.0,0.0,0.0,0.0,0.0,random_forest,0.6078431372549019,0
7,2,2021-08-20 16:53:19.890033,0.8,0,97,199,40,20,1,0,0,0,0,0,0,0.8,-0.34530001457024706,0.7317730101875322,0.4374220009813354,0.6642814119502314,0.0,0.0,0.0,0.0,0.20351327201439387,2.2204460492502394e-16,0.9999997360199504,0.0011457968935091227,0.396061223909499,0.40635024183149704,0.011076706917160947,2.868515921623897,4.0321972960555286e-07,1,0,0,0,0,0,0,0,0,0,1,0,0,0,0,0,0,0,0,0,1,0,0,0,0,0,0,0,0,0,0,0,0,0,0,0,0,0,0,0,0,0,0,0,0,0,0,0,0,0,0,0,0,0,0,0,0,0,0,0,0,0,0,1,0.9117647058823528,0.9819004524886876,1.068965517241379,0.8033536585365854,1.015693832599119,1.1165254237288136,0.0,0.0,0.0,0.0,0.0,0.0,ada_boost,0.6458333333333333,5
8,2,2021-08-20 16:53:19.890033,0.8,0,97,199,40,20,0,1,0,0,0,0,0,0.8,0.36971568354548556,0.7136468532515479,0.3697169829504918,0.713645892923995,0.0,0.0,0.0,0.0,0.25,0.0,1.0,0.0,0.4330127018922193,0.4442616583193193,0.0608382250420078,2.33365298513524,8.080315296865592e-07,1,0,0,0,0,0,0,0,0,0,1,0,0,0,0,0,0,0,0,0,1,0,0,0,0,0,0,0,0,0,0,0,0,0,0,0,0,0,0,0,0,0,0,0,0,0,0,0,0,0,0,0,0,0,0,0,0,0,0,0,0,0,0,0,0.8529411764705883,0.9185520361990951,1.0,0.7515243902439026,0.9501651982378856,1.044491525423729,0.0,0.0,0.0,0.0,0.0,0.0,ada_boost,0.6041666666666667,5
9,2,2021-08-20 16:53:19.890033,0.8,0,97,199,40,20,0,0,1,0,0,0,0,0.8,-0.7084739557666632,0.4829747007401468,0.40647094441263304,0.6866768201758775,0.0,0.0,0.0,0.0,0.20000018093642966,4.950714785986993e-48,1.0,1.288732742169162e-30,0.39999990953255243,0.4103912480164189,0.010846242872921168,2.8740994516349385,2.8887950520584127e-07,1,0,0,0,0,0,0,0,0,0,1,0,0,0,0,0,0,0,0,0,1,0,0,0,0,0,0,0,0,0,0,0,0,0,0,0,0,0,0,0,0,0,0,0,0,0,0,0,0,0,0,0,0,0,0,0,0,0,0,0,0,0,0,1,0.9117647058823528,0.9819004524886876,1.068965517241379,0.8033536585365854,1.015693832599119,1.1165254237288136,0.0,0.0,0.0,0.0,0.0,0.0,ada_boost,0.6458333333333333,5
10,2,2021-08-20 16:53:19.890033,0.8,0,97,199,40,20,0,0,0,1,0,0,0,0.8,0.2224554006189434,0.8251507452074125,-4.040747935294917,0.00025018393666371595,0.0,0.0,0.0,0.0,0.27595971694588994,0.0558072932807363,0.7872308349575405,0.17418408774477712,0.24167958294815933,0.24795802024577981,0.07102038067169018,2.2607811397848208,0.0009317672811448574,1,0,0,0,0,0,0,0,0,0,1,0,0,0,0,0,0,0,0,0,1,0,0,0,0,0,0,0,0,0,0,0,0,0,0,0,0,0,0,0,0,0,0,0,0,0,0,0,0,0,0,0,0,0,0,0,0,0,0,0,0,0,0,1,0.9117647058823528,0.9819004524886876,1.068965517241379,0.8033536585365854,1.015693832599119,1.1165254237288136,0.0,0.0,0.0,0.0,0.0,0.0,ada_boost,0.6458333333333333,5
11,2,2021-08-20 16:53:19.890033,0.8,0,97,199,40,20,0,0,0,0,1,0,0,0.8,0.12022807052001,0.9049359208914375,0.8850210787777284,0.3817113059719516,0.0,0.0,0.0,0.0,0.25327943895245253,0.002018520532783932,0.9915141108936995,0.03250855972232245,0.3729474087779312,0.3826359678724102,0.06068267380450504,2.3667266935886246,1.4572593499906361e-05,1,0,0,0,0,0,0,0,0,0,1,0,0,0,0,0,0,0,0,0,1,0,0,0,0,0,0,0,0,0,0,0,0,0,0,0,0,0,0,0,0,0,0,0,0,0,0,0,0,0,0,0,0,0,0,0,0,0,0,0,0,0,0,2,1.0,1.076923076923077,1.1724137931034482,0.8810975609756099,1.1139867841409692,1.224576271186441,0.0,0.0,0.0,0.0,0.0,0.0,ada_boost,0.7083333333333334,5
12,2,2021-08-20 16:53:19.890033,0.8,0,97,199,40,20,0,0,0,0,0,1,0,0.8,-0.07510861599399571,0.9405223154140143,0.8594136202976794,0.39550171844182613,0.0,0.0,0.0,0.0,0.23858180291531128,4.987265241977544e-05,0.999303581064797,0.0029549109785092483,0.3806007471513194,0.39048812736468913,0.05534942904169078,2.4002842251164322,7.005857696640305e-06,1,0,0,0,0,0,0,0,0,0,1,0,0,0,0,0,0,0,0,0,1,0,0,0,0,0,0,0,0,0,0,0,0,0,0,0,0,0,0,0,0,0,0,0,0,0,0,0,0,0,0,0,0,0,0,0,0,0,0,0,0,0,0,2,1.0,1.076923076923077,1.1724137931034482,0.8810975609756099,1.1139867841409692,1.224576271186441,0.0,0.0,0.0,0.0,0.0,0.0,ada_boost,0.7083333333333334,5
13,2,2021-08-20 16:53:19.890033,0.8,0,97,199,40,20,0,0,0,0,0,0,1,0.8,0.3785898192552638,0.707099483303453,0.7948788181251321,0.4316208423026613,0.0,0.0,0.0,0.0,0.24699999999999997,0.0,0.86,0.13,0.30630213841891474,0.3142593632151969,0.0513620000218024,2.405359417554698,0.00011263079795753583,1,0,0,0,0,0,0,0,0,0,1,0,0,0,0,0,0,0,0,0,1,0,0,0,0,0,0,0,0,0,0,0,0,0,0,0,0,0,0,0,0,0,0,0,0,0,0,0,0,0,0,0,0,0,0,0,0,0,0,0,0,0,0,1,0.9117647058823528,0.9819004524886876,1.068965517241379,0.8033536585365854,1.015693832599119,1.1165254237288136,0.0,0.0,0.0,0.0,0.0,0.0,ada_boost,0.6458333333333333,5
14,3,2021-08-20 16:53:19.890033,0.8,0,97,199,60,20,1,0,0,0,0,0,0,0.8,0.5053495583888937,0.6162320465355509,0.47814971602053774,0.6352830704925687,0.9986272121733623,0.3242922365467418,0.0,0.0,0.2589730810602194,0.015901620672434228,0.9830751667548635,0.13409590419808157,0.31424237602233573,0.3224058751067193,0.011881619233175817,2.7197676429439137,0.00011375018220860511,0,0,0,0,0,1,0,0,0,0,0,1,0,0,0,0,0,0,0,0,1,1,0,0,0,0,0,0,0,0,0,1,0,0,0,0,0,0,0,0,0,1,0,0,0,0,0,0,0,0,0,0,0,0,0,0,0,0,0,0,0,0,0,2,0.8817204301075268,1.0323741007194245,1.2615384615384615,1.134948096885813,1.2222517966462603,1.3306288032454359,1.0,1.2643171806167401,1.3898305084745763,0.0,0.0,0.0,mlp,0.8039215686274509,6
15,3,2021-08-20 16:53:19.890033,0.8,0,97,199,60,20,0,1,0,0,0,0,0,0.8,-0.7165985720844783,0.47800321633485754,-0.3697169829504918,0.713645892923995,0.0,1.0,0.0,0.0,0.2,0.0,1.0,0.0,0.4000000000000001,0.41039134083406165,0.010846242872071775,2.8740994516559835,2.888745029849815e-07,0,0,0,0,0,1,0,0,0,0,0,1,0,0,0,0,0,0,0,0,1,1,0,0,0,0,0,0,0,0,0,1,0,0,0,0,0,0,0,0,0,1,0,0,0,0,0,0,0,0,0,0,0,0,0,0,0,0,0,0,0,0,0,1,0.8494623655913978,0.9946043165467626,1.2153846153846153,1.093425605536332,1.1775352675006654,1.2819472616632857,0.9634146341463414,1.2180616740088106,1.3389830508474576,0.0,0.0,0.0,mlp,0.7745098039215685,6
16,3,2021-08-20 16:53:19.890033,0.8,0,97,199,60,20,0,0,1,0,0,0,0,0.8,0.40046891460128264,0.6910538456927929,0.7165973455817192,0.4780039646349724,1.1254628677422756,0.2674513066062337,0.0,0.0,0.3,2.179117963285195e-43,1.0,2.766093615819367e-25,0.45825756949558394,0.4701623459816272,0.036014426440366676,1.836099950280395,1.8570412976259831e-06,0,0,0,0,0,1,0,0,0,0,0,1,0,0,0,0,0,0,0,0,1,1,0,0,0,0,0,0,0,0,0,1,0,0,0,0,0,0,0,0,0,1,0,0,0,0,0,0,0,0,0,0,0,0,0,0,0,0,0,0,0,0,0,3,1.0,1.170863309352518,1.4307692307692308,1.28719723183391,1.3862124035134415,1.509127789046653,1.1341463414634148,1.4339207048458151,1.576271186440678,0.0,0.0,0.0,mlp,0.9117647058823529,6
17,3,2021-08-20 16:53:19.890033,0.8,0,97,199,60,20,0,0,0,1,0,0,0,0.8,0.6646162319404434,0.5103093383859345,-0.30858924191133463,0.7593194684612805,-6.507078136121707,1.1507325967108078e-07,0.0,0.0,0.25528545516435275,0.0956194366959835,0.6636750463421777,0.16971581824964233,0.1639266151834685,0.1681851585088322,0.02170907264200251,2.507315688133162,0.0011028036242350936,0,0,0,0,0,1,0,0,0,0,0,1,0,0,0,0,0,0,0,0,1,1,0,0,0,0,0,0,0,0,0,1,0,0,0,0,0,0,0,0,0,1,0,0,0,0,0,0,0,0,0,0,0,0,0,0,0,0,0,0,0,0,0,0,0.6989247311827956,0.8183453237410072,1.0,0.8996539792387542,0.9688581314878892,1.0547667342799187,0.7926829268292683,1.002202643171806,1.1016949152542372,0.0,0.0,0.0,mlp,0.6372549019607843,6
18,3,2021-08-20 16:53:19.890033,0.8,0,97,199,60,20,0,0,0,0,1,0,0,0.8,0.5623304375487489,0.5771933354603648,-0.4648814579903746,0.6446692932757032,0.4524709799644266,0.6535023763884623,0.0,0.0,0.20129064393880278,0.002607880025136822,0.986991299630833,0.015225261256508287,0.3139001896328057,0.32205479927868336,0.011382845260719808,2.7651299211819946,1.664489354880061e-05,0,0,0,0,0,1,0,0,0,0,0,1,0,0,0,0,0,0,0,0,1,1,0,0,0,0,0,0,0,0,0,1,0,0,0,0,0,0,0,0,0,1,0,0,0,0,0,0,0,0,0,0,0,0,0,0,0,0,0,0,0,0,0,1,0.8494623655913978,0.9946043165467626,1.2153846153846153,1.093425605536332,1.1775352675006654,1.2819472616632857,0.9634146341463414,1.2180616740088106,1.3389830508474576,0.0,0.0,0.0,mlp,0.7745098039215685,6
19,3,2021-08-20 16:53:19.890033,0.8,0,97,199,60,20,0,0,0,0,0,1,0,0.8,-0.9434118950140677,0.35143008515949703,-0.8389681165943333,0.4067341545477132,0.058001813513963545,0.9540511221716835,0.0,0.0,0.1451841007615679,1.794184436431727e-05,0.9836978946626418,0.0011855642862485046,0.3010195892222572,0.3088395820956015,2.9597932383252604e-05,3.7107360490541086,6.607622253795853e-07,0,0,0,0,0,1,0,0,0,0,0,1,0,0,0,0,0,0,0,0,1,1,0,0,0,0,0,0,0,0,0,1,0,0,0,0,0,0,0,0,0,1,0,0,0,0,0,0,0,0,0,0,0,0,0,0,0,0,0,0,0,0,0,0,0.6989247311827956,0.8183453237410072,1.0,0.8996539792387542,0.9688581314878892,1.0547667342799187,0.7926829268292683,1.002202643171806,1.1016949152542372,0.0,0.0,0.0,mlp,0.6372549019607843,6
20,3,2021-08-20 16:53:19.890033,0.8,0,97,199,60,20,0,0,0,0,0,0,1,0.8,-0.2656960802211136,0.7919095122530645,-0.1428407277208176,0.887170702266321,0.6898184617813008,0.4944998243901212,0.0,0.0,0.23349999999999999,0.0,0.72,0.07,0.27548638804848413,0.28264307043187503,0.059930833101380074,1.7350608085464347,8.732037531444803e-05,0,0,0,0,0,1,0,0,0,0,0,1,0,0,0,0,0,0,0,0,1,1,0,0,0,0,0,0,0,0,0,1,0,0,0,0,0,0,0,0,0,1,0,0,0,0,0,0,0,0,0,0,0,0,0,0,0,0,0,0,0,0,0,3,1.0,1.170863309352518,1.4307692307692308,1.28719723183391,1.3862124035134415,1.509127789046653,1.1341463414634148,1.4339207048458151,1.576271186440678,0.0,0.0,0.0,mlp,0.9117647058823529,6
21,4,2021-08-20 16:53:19.890033,0.8,0,97,199,80,20,1,0,0,0,0,0,0,0.75,-0.8118400077793736,0.42193998681408396,2.2243086381879986,0.03214429265371402,2.4347212219759973,0.019709297053843933,3.0647008673608473,0.003996071604584717,0.49032020300166934,0.023154923973260952,0.9396105776167213,0.5943438402080619,0.3267866739696492,0.3352760532427692,0.02144216101658186,-0.4874611856660237,0.021748650819063187,0,0,0,0,0,0,1,0,0,1,0,0,0,0,1,0,0,0,0,0,0,0,0,0,0,0,1,0,0,0,0,0,1,0,0,0,0,0,0,0,0,1,1,0,0,0,0,0,0,0,0,0,1,0,0,0,0,0,0,0,0,0,1,3,0.9580838323353295,1.009009009009009,1.0738255033557047,0.8862821766047573,1.037715282319599,1.2680652680652682,1.140819964349376,1.228575346222405,1.3375130616509925,1.0051736881005175,1.2708583633693766,1.3970210580380074,random_forest,0.8080808080808081,5
22,4,2021-08-20 16:53:19.890033,0.8,0,97,199,80,20,0,1,0,0,0,0,0,0.75,0.6206983831413163,0.5385033777289134,2.7568097504180433,0.008918627040453608,2.333333333333333,0.025022570283044346,2.7568097504180438,0.0089186270404536,0.6,0.0,1.0,1.0,0.48989794855663565,0.5026246899500346,1.5949436622339992e-06,-0.902946827762027,5.604098078038078e-06,0,0,0,0,0,0,1,0,0,1,0,0,0,0,1,0,0,0,0,0,0,0,0,0,0,0,1,0,0,0,0,0,1,0,0,0,0,0,0,0,0,1,1,0,0,0,0,0,0,0,0,0,1,0,0,0,0,0,0,0,0,0,1,1,0.9041916167664671,0.9522522522522522,1.0134228187919463,0.8364288041707396,0.9793437976891215,1.1967365967365966,1.0766488413547235,1.1594679829973946,1.262277951933124,0.9486326681448632,1.1993725804298492,1.3184386235233692,random_forest,0.7626262626262625,5
23,4,2021-08-20 16:53:19.890033,0.8,0,97,199,80,20,0,0,1,0,0,0,0,0.75,0.456122261689424,0.6508982779133924,1.288165716865422,0.20547719953178906,2.0455579900339544,0.047767917434576625,2.4867642851075695,0.017400042860415875,0.5003576102786303,2.903540839572211e-42,1.0,0.5031051480782172,0.4996441044444426,0.5126240349069718,6.2732105902332394e-12,-4.6157930816346064e-05,8.270752005046234e-06,0,0,0,0,0,0,1,0,0,1,0,0,0,0,1,0,0,0,0,0,0,0,0,0,0,0,1,0,0,0,0,0,1,0,0,0,0,0,0,0,0,1,1,0,0,0,0,0,0,0,0,0,1,0,0,0,0,0,0,0,0,0,1,0,0.8922155688622755,0.9396396396396396,1.0,0.8253502769631802,0.9663723566601266,1.180885780885781,1.0623885918003564,1.1441107911696147,1.2455590386624866,0.9360679970436069,1.1834868508877319,1.3009758602978942,random_forest,0.7525252525252525,5
24,4,2021-08-20 16:53:19.890033,0.8,0,97,199,80,20,0,0,0,1,0,0,0,0.75,0.13207854146313885,0.8956190470687032,3.0474265443569393,0.004184623045882007,2.2643897357670673,0.029339092466810008,-1.153273870774588,0.25600074952599716,0.44349884518768157,0.09261817074059309,0.7521294885374914,0.45441770684169214,0.21354870943623946,0.21909635299730434,0.16504801429498842,-0.28884746804236666,0.18309596180915833,0,0,0,0,0,0,1,0,0,1,0,0,0,0,1,0,0,0,0,0,0,0,0,0,0,0,1,0,0,0,0,0,1,0,0,0,0,0,0,0,0,1,1,0,0,0,0,0,0,0,0,0,1,0,0,0,0,0,0,0,0,0,1,4,1.0,1.053153153153153,1.1208053691275166,0.9250570218312153,1.0831153259210813,1.3235431235431234,1.190730837789661,1.282325517619635,1.3960292580982232,1.049150036954915,1.3264584167667868,1.45814072932717,random_forest,0.8434343434343433,5
25,4,2021-08-20 16:53:19.890033,0.8,0,97,199,80,20,0,0,0,0,1,0,0,0.75,-0.06170234742050909,0.9511232709004944,1.9120710242547547,0.06342831108246996,1.3765818727528694,0.17669894280671788,2.331386525539325,0.02513616396416107,0.4293702187193099,0.0009692754953735379,0.9966173428110285,0.24738936600455333,0.4145017200994491,0.42526979172409457,0.00010588616908589058,0.5833353008006611,0.0005542025319300592,0,0,0,0,0,0,1,0,0,1,0,0,0,0,1,0,0,0,0,0,0,0,0,0,0,0,1,0,0,0,0,0,1,0,0,0,0,0,0,0,0,1,1,0,0,0,0,0,0,0,0,0,1,0,0,0,0,0,0,0,0,0,1,2,0.9461077844311377,0.9963963963963963,1.0604026845637584,0.8752036493971977,1.0247438412906038,1.2522144522144523,1.1265597147950088,1.2132181543946248,1.320794148380355,0.9926090169992609,1.2549726338272593,1.379558294812532,random_forest,0.7979797979797979,5
26,4,2021-08-20 16:53:19.890033,0.8,0,97,199,80,20,0,0,0,0,0,1,0,0.75,-0.08020993881597396,0.9364912341434369,2.461982669180666,0.018467037406549782,1.528576148599619,0.13465184844537825,2.430032398454895,0.019930451946932277,0.43773854692673525,2.3122467355550774e-05,0.9990425880957777,0.3639860909256172,0.42151227422317056,0.4324624684911541,0.00012240503025216738,0.47961916143097993,0.0005938726826570928,0,0,0,0,0,0,1,0,0,1,0,0,0,0,1,0,0,0,0,0,0,0,0,0,0,0,1,0,0,0,0,0,1,0,0,0,0,0,0,0,0,1,1,0,0,0,0,0,0,0,0,0,1,0,0,0,0,0,0,0,0,0,1,4,1.0,1.053153153153153,1.1208053691275166,0.9250570218312153,1.0831153259210813,1.3235431235431234,1.190730837789661,1.282325517619635,1.3960292580982232,1.049150036954915,1.3264584167667868,1.45814072932717,random_forest,0.8434343434343433,5
27,4,2021-08-20 16:53:19.890033,0.8,0,97,199,80,20,0,0,0,0,0,0,1,0.75,-0.4067996920875363,0.6864373920636218,2.2009562731324537,0.033886703359921444,1.9663142891113594,0.056598346086149845,2.825278281454609,0.007487191173918694,0.44750000000000006,0.0,0.94,0.445,0.3220694800815501,0.33043631443099114,0.07563048760993474,0.16496130408024798,0.0655905157327652,0,0,0,0,0,0,1,0,0,1,0,0,0,0,1,0,0,0,0,0,0,0,0,0,0,0,1,0,0,0,0,0,1,0,0,0,0,0,0,0,0,1,1,0,0,0,0,0,0,0,0,0,1,0,0,0,0,0,0,0,0,0,1,2,0.9461077844311377,0.9963963963963963,1.0604026845637584,0.8752036493971977,1.0247438412906038,1.2522144522144523,1.1265597147950088,1.2132181543946248,1.320794148380355,0.9926090169992609,1.2549726338272593,1.379558294812532,random_forest,0.7979797979797979,5
28,5,2021-08-20 16:53:19.890033,0.8,0,97,199,100,20,1,0,0,0,0,0,0,0.75,-0.15981896387965405,0.8738701894162331,-0.11561809155377997,0.9085640541613659,2.0195750612648014,0.05052078583675289,2.254680445307876,0.029997765074959038,0.47758114862369927,0.06481102269510951,0.9645455320495511,0.5025721018251802,0.3519554645750918,0.36109868755211755,1.8536625789079173e-05,0.1179334982794522,0.0013920058263465762,0,0,0,0,0,1,0,0,0,0,1,0,0,0,1,0,0,0,0,0,0,0,0,0,0,0,0,1,0,0,1,0,0,0,0,1,0,0,0,0,0,0,0,0,0,0,0,1,0,0,0,0,0,1,0,0,0,0,0,0,0,0,1,2,0.8095238095238095,0.9444444444444445,1.0625000000000002,0.8398203592814373,0.8844594594594596,0.941275167785235,0.7768817204301076,0.9096223021582736,1.1115384615384616,1.0,1.076923076923077,1.1724137931034482,mlp,0.7083333333333334,5
29,5,2021-08-20 16:53:19.890033,0.8,0,97,199,100,20,0,1,0,0,0,0,0,0.75,-0.6318573158861509,0.5312633390664919,-0.622699849077239,0.5372010260785077,2.0422369371150526,0.0481123149730731,1.6475089420958278,0.10769928798593904,0.5,0.0,1.0,0.5,0.5,0.512989176042577,3.6395496705596064e-12,1.0403494689426542,8.099740625766572e-06,0,0,0,0,0,1,0,0,0,0,1,0,0,0,1,0,0,0,0,0,0,0,0,0,0,0,0,1,0,0,1,0,0,0,0,1,0,0,0,0,0,0,0,0,0,0,0,1,0,0,0,0,0,1,0,0,0,0,0,0,0,0,1,2,0.8095238095238095,0.9444444444444445,1.0625000000000002,0.8398203592814373,0.8844594594594596,0.941275167785235,0.7768817204301076,0.9096223021582736,1.1115384615384616,1.0,1.076923076923077,1.1724137931034482,mlp,0.7083333333333334,5
30,5,2021-08-20 16:53:19.890033,0.8,0,97,199,100,20,0,0,1,0,0,0,0,0.75,1.3870940311333235,0.17349581275377599,0.6298563878209529,0.5325577772177399,1.961237294076276,0.05720944518851418,2.7711854834287974,0.008598493619904054,0.6013109742138918,6.166082096049652e-37,1.0,0.9999999999999929,0.4883231362097113,0.5010089665734938,1.6583407286262458e-06,-0.9037632542644678,5.991726538923103e-06,0,0,0,0,0,1,0,0,0,0,1,0,0,0,1,0,0,0,0,0,0,0,0,0,0,0,0,1,0,0,1,0,0,0,0,1,0,0,0,0,0,0,0,0,0,0,0,1,0,0,0,0,0,1,0,0,0,0,0,0,0,0,1,3,0.8333333333333331,0.972222222222222,1.0937499999999998,0.8645209580838323,0.9104729729729728,0.968959731543624,0.7997311827956988,0.9363758992805755,1.1442307692307692,1.029411764705882,1.1085972850678731,1.2068965517241375,mlp,0.7291666666666665,5
31,5,2021-08-20 16:53:19.890033,0.8,0,97,199,100,20,0,0,0,1,0,0,0,0.75,-1.0300357633719437,0.30950501889277665,-0.16785704344924018,0.8675859287909768,2.873545424096038,0.006610085972330833,2.1148256538489374,0.04106029742119022,0.43191304432533173,0.11398728827157356,0.7552955530892405,0.5252932266597581,0.21192735672829344,0.2174328802178571,0.03175095942533686,-0.7156455019761053,0.019733350723981857,0,0,0,0,0,1,0,0,0,0,1,0,0,0,1,0,0,0,0,0,0,0,0,0,0,0,0,1,0,0,1,0,0,0,0,1,0,0,0,0,0,0,0,0,0,0,0,1,0,0,0,0,0,1,0,0,0,0,0,0,0,0,1,4,1.0,1.1666666666666667,1.3125,1.0374251497005988,1.0925675675675677,1.162751677852349,0.9596774193548387,1.1236510791366907,1.373076923076923,1.2352941176470587,1.330316742081448,1.4482758620689653,mlp,0.875,5
32,5,2021-08-20 16:53:19.890033,0.8,0,97,199,100,20,0,0,0,0,1,0,0,0.75,0.1220443153564618,0.9035070667846705,0.8186134414045014,0.4181112151644788,2.940203160325884,0.005555837095749293,2.299809347174518,0.027044577326896566,0.5353717699843278,0.003587160732986546,0.9892668168038559,0.6084427949850697,0.38310525798298417,0.39305770126053985,0.010445814389629281,-0.5714388597492821,0.005513632204383612,0,0,0,0,0,1,0,0,0,0,1,0,0,0,1,0,0,0,0,0,0,0,0,0,0,0,0,1,0,0,1,0,0,0,0,1,0,0,0,0,0,0,0,0,0,0,0,1,0,0,0,0,0,1,0,0,0,0,0,0,0,0,1,0,0.7619047619047619,0.8888888888888888,1.0,0.7904191616766467,0.8324324324324324,0.8859060402684563,0.7311827956989247,0.8561151079136692,1.0461538461538462,0.9411764705882352,1.0135746606334841,1.1034482758620687,mlp,0.6666666666666666,5
33,5,2021-08-20 16:53:19.890033,0.8,0,97,199,100,20,0,0,0,0,0,1,0,0.75,0.6181973442645936,0.5401331125231768,0.5936243216897951,0.5562807501369236,3.1275447596016646,0.0033756152583403957,2.142809714920031,0.038594902106467405,0.5193345999823255,0.00015811823774732734,0.9978319849799929,0.6082983043625368,0.4258003988212975,0.43686199149987615,2.9765411741131767e-05,-0.2984750865360316,0.0006419969140551984,0,0,0,0,0,1,0,0,0,0,1,0,0,0,1,0,0,0,0,0,0,0,0,0,0,0,0,1,0,0,1,0,0,0,0,1,0,0,0,0,0,0,0,0,0,0,0,1,0,0,0,0,0,1,0,0,0,0,0,0,0,0,1,4,1.0,1.1666666666666667,1.3125,1.0374251497005988,1.0925675675675677,1.162751677852349,0.9596774193548387,1.1236510791366907,1.373076923076923,1.2352941176470587,1.330316742081448,1.4482758620689653,mlp,0.875,5
34,5,2021-08-20 16:53:19.890033,0.8,0,97,199,100,20,0,0,0,0,0,0,1,0.75,-0.32042197629630537,0.7504038691419206,-0.059402073422362166,0.9529431626847924,2.024172241536461,0.050023879306118645,1.8128382846413305,0.07776237458498632,0.4410000000000001,0.0,0.93,0.42500000000000004,0.35180818637433664,0.3609475833064087,0.0014742031997423614,0.18489884141349888,0.008127093315124512,0,0,0,0,0,1,0,0,0,0,1,0,0,0,1,0,0,0,0,0,0,0,0,0,0,0,0,1,0,0,1,0,0,0,0,1,0,0,0,0,0,0,0,0,0,0,0,1,0,0,0,0,0,1,0,0,0,0,0,0,0,0,1,1,0.7857142857142857,0.9166666666666666,1.03125,0.815119760479042,0.858445945945946,0.9135906040268457,0.7540322580645161,0.8828687050359714,1.078846153846154,0.9705882352941176,1.0452488687782806,1.1379310344827585,mlp,0.6875,5
35,6,2021-08-20 16:53:19.890033,0.8,0,97,199,120,20,1,0,0,0,0,0,0,0.85,0.36222658100171357,0.7191894797493279,-1.02081387530339,0.3137978978436917,-1.1580301333513265,0.2540784487004544,0.7775523585936922,0.44164714929452475,0.3510838500909647,9.01734204135037e-05,0.9501494357739442,0.06896792765432963,0.40973831352932455,0.4203826397009666,0.0004806654924693136,1.1088070480350354,4.439700933289714e-05,0,0,0,0,0,1,0,0,0,0,1,0,0,0,0,0,1,0,0,0,0,0,0,0,0,0,1,0,0,0,0,1,0,0,0,1,0,0,0,0,0,0,0,0,0,0,0,0,1,0,0,1,0,0,0,0,1,0,0,0,0,0,0,2,0.7530864197530862,0.9552572706935121,1.1296296296296293,0.8299319727891155,0.968253968253968,1.0892857142857142,0.8609923011120616,0.9067567567567566,0.9650047938638542,0.7964669738863286,0.9325539568345323,1.1395604395604395,mlp,0.726190476190476,3
36,6,2021-08-20 16:53:19.890033,0.8,0,97,199,120,20,0,1,0,0,0,0,0,0.85,-0.6497953589218008,0.5197334291966198,-1.285369173834303,0.20644216169521704,-1.9493588689617927,0.05866153705091296,0.7165985720844783,0.47800321633485754,0.3,0.0,1.0,0.0,0.45825756949558394,0.4701623459816272,0.036014426440366676,1.836099950280395,1.8570412976259831e-06,0,0,0,0,0,1,0,0,0,0,1,0,0,0,0,0,1,0,0,0,0,0,0,0,0,0,1,0,0,0,0,1,0,0,0,1,0,0,0,0,0,0,0,0,0,0,0,0,1,0,0,1,0,0,0,0,1,0,0,0,0,0,0,0,0.6666666666666667,0.8456375838926175,1.0,0.7346938775510204,0.8571428571428572,0.9642857142857144,0.7621899059024809,0.8027027027027028,0.8542665388302974,0.7050691244239632,0.8255395683453239,1.008791208791209,mlp,0.6428571428571429,3
37,6,2021-08-20 16:53:19.890033,0.8,0,97,199,120,20,0,0,1,0,0,0,0,0.85,0.34617673396078297,0.7311193593370096,-1.2685844007111933,0.21230583441415093,-0.6251463481302518,0.5356113305582777,0.6497953589218008,0.5197334291966198,0.40000128179433514,1.357212082256196e-41,1.0,1.930430746833252e-11,0.48989690199676944,0.5026236162022677,1.5949436796855933e-06,0.9029468269387078,5.604528269032016e-06,0,0,0,0,0,1,0,0,0,0,1,0,0,0,0,0,1,0,0,0,0,0,0,0,0,0,1,0,0,0,0,1,0,0,0,1,0,0,0,0,0,0,0,0,0,0,0,0,1,0,0,1,0,0,0,0,1,0,0,0,0,0,0,1,0.7160493827160493,0.9082774049217002,1.074074074074074,0.7891156462585034,0.9206349206349206,1.0357142857142858,0.8186484174508127,0.8621621621621621,0.9175455417066156,0.7572964669738863,0.8866906474820145,1.0835164835164837,mlp,0.6904761904761905,3
38,6,2021-08-20 16:53:19.890033,0.8,0,97,199,120,20,0,0,0,1,0,0,0,0.85,0.139576563546458,0.8897317184422937,-1.0393255735182207,0.30522149131568094,-1.1957774857429362,0.2391921245107323,1.558686326434141,0.12736114677411103,0.3569431377143049,0.08167610093232724,0.7735472333947655,0.26813516110354385,0.2322663113328638,0.23830020734618898,0.03285299363809314,0.7408216617554697,0.023671377450227737,0,0,0,0,0,1,0,0,0,0,1,0,0,0,0,0,1,0,0,0,0,0,0,0,0,0,1,0,0,0,0,1,0,0,0,1,0,0,0,0,0,0,0,0,0,0,0,0,1,0,0,1,0,0,0,0,1,0,0,0,0,0,0,4,1.0,1.2684563758389262,1.5,1.1020408163265307,1.2857142857142858,1.4464285714285716,1.1432848588537212,1.204054054054054,1.2813998082454459,1.0576036866359448,1.2383093525179858,1.5131868131868134,mlp,0.9642857142857143,3
39,6,2021-08-20 16:53:19.890033,0.8,0,97,199,120,20,0,0,0,0,1,0,0,0.85,0.28714221455972894,0.7755634490051374,-1.5745234497389802,0.12365651587990972,-0.6778658602251875,0.5019636475419371,1.2723370786228447,0.21098411241756243,0.34295086268586006,0.0016672648768559907,0.9843222236657226,0.148314021856283,0.37012974724801784,0.3797451081392159,0.022389091767226116,1.1112157944142755,0.000900395039934665,0,0,0,0,0,1,0,0,0,0,1,0,0,0,0,0,1,0,0,0,0,0,0,0,0,0,1,0,0,0,0,1,0,0,0,1,0,0,0,0,0,0,0,0,0,0,0,0,1,0,0,1,0,0,0,0,1,0,0,0,0,0,0,2,0.7530864197530862,0.9552572706935121,1.1296296296296293,0.8299319727891155,0.968253968253968,1.0892857142857142,0.8609923011120616,0.9067567567567566,0.9650047938638542,0.7964669738863286,0.9325539568345323,1.1395604395604395,mlp,0.726190476190476,3
40,6,2021-08-20 16:53:19.890033,0.8,0,97,199,120,20,0,0,0,0,0,1,0,0.85,-0.06061814081119856,0.9519810226832214,-1.5962968278204095,0.1187065614639436,-0.9869424622284023,0.3299136532185335,1.4316891506441207,0.16040699802857544,0.3074487657540903,0.00010315986602938368,0.9621319238884822,0.027228098960315812,0.39172871820212657,0.4019051847654475,0.04755141324431955,1.5822038750953038,6.797426613047719e-05,0,0,0,0,0,1,0,0,0,0,1,0,0,0,0,0,1,0,0,0,0,0,0,0,0,0,1,0,0,0,0,1,0,0,0,1,0,0,0,0,0,0,0,0,0,0,0,0,1,0,0,1,0,0,0,0,1,0,0,0,0,0,0,3,0.8765432098765433,1.1118568232662194,1.3148148148148149,0.9659863945578232,1.1269841269841272,1.267857142857143,1.0021385799828917,1.0554054054054056,1.1232023010546504,0.9270353302611368,1.0854316546762592,1.3263736263736265,mlp,0.8452380952380953,3
41,6,2021-08-20 16:53:19.890033,0.8,0,97,199,120,20,0,0,0,0,0,0,1,0.85,-0.30603077941166645,0.7612516205917769,-1.156294646498488,0.2547786528419236,-1.2730993141668276,0.2107164048743669,0.8332903026029295,0.40988824995854967,0.3145,0.0,0.89,0.255,0.32192351576111994,0.3302865581980529,0.054618095132533455,1.1369628714332538,0.002508073579519987,0,0,0,0,0,1,0,0,0,0,1,0,0,0,0,0,1,0,0,0,0,0,0,0,0,0,1,0,0,0,0,1,0,0,0,1,0,0,0,0,0,0,0,0,0,0,0,0,1,0,0,1,0,0,0,0,1,0,0,0,0,0,0,2,0.7530864197530862,0.9552572706935121,1.1296296296296293,0.8299319727891155,0.968253968253968,1.0892857142857142,0.8609923011120616,0.9067567567567566,0.9650047938638542,0.7964669738863286,0.9325539568345323,1.1395604395604395,mlp,0.726190476190476,3
42,7,2021-08-20 16:53:19.890033,0.8,0,97,199,140,20,1,0,0,0,0,0,0,0.8,1.8744640199767908,0.06856918199579988,0.4347451848429036,0.6662063908294638,-0.8301176015324606,0.41165729224556635,-1.0132710144099566,0.317339326144273,0.3978087940484488,0.12511029476135693,0.8544061139906829,0.3743053837811684,0.22712942619141008,0.23302987439390951,0.15399618607967255,0.5415621533880288,0.040639929473400116,0,0,0,1,0,0,0,0,0,0,0,0,1,0,0,0,0,0,0,0,1,0,0,0,0,0,1,0,0,0,0,1,0,0,0,0,0,1,0,0,0,0,0,0,0,0,0,1,0,0,0,0,1,0,0,0,1,0,0,0,0,0,0,2,0.8823529411764706,1.0294117647058822,1.5,0.7777777777777778,0.9865771812080537,1.1666666666666665,0.8571428571428571,1.0,1.125,0.8892215568862277,0.9364864864864865,0.9966442953020135,gaussian_process,0.75,6
43,7,2021-08-20 16:53:19.890033,0.8,0,97,199,140,20,0,1,0,0,0,0,0,0.8,-2.030882711175422,0.04930619771989441,-0.7165985720844783,0.47800321633485754,-2.0422369371150526,0.0481123149730731,-2.7568097504180438,0.0089186270404536,0.2,0.0,1.0,0.0,0.4,0.41039134083406165,0.010846242872071747,2.8740994516559843,2.888745029849815e-07,0,0,0,1,0,0,0,0,0,0,0,0,1,0,0,0,0,0,0,0,1,0,0,0,0,0,1,0,0,0,0,1,0,0,0,0,0,1,0,0,0,0,0,0,0,0,0,1,0,0,0,0,1,0,0,0,1,0,0,0,0,0,0,1,0.8235294117647058,0.96078431372549,1.4,0.7259259259259259,0.9208053691275168,1.0888888888888888,0.7999999999999999,0.9333333333333332,1.05,0.8299401197604791,0.874054054054054,0.9302013422818792,gaussian_process,0.7,6
44,7,2021-08-20 16:53:19.890033,0.8,0,97,199,140,20,0,0,1,0,0,0,0,0.8,1.9834507642561756,0.05457722300332288,0.6080417956447939,0.5467769644785272,-0.6498654339481656,0.5196886521330553,-0.01835375340607551,0.9854526777595837,0.49738901609893665,6.680164727283725e-29,1.0,0.4844984680815023,0.49740521780308544,0.5103269856801668,6.967673603935355e-12,0.0015622494844749922,9.375919944432098e-06,0,0,0,1,0,0,0,0,0,0,0,0,1,0,0,0,0,0,0,0,1,0,0,0,0,0,1,0,0,0,0,1,0,0,0,0,0,1,0,0,0,0,0,0,0,0,0,1,0,0,0,0,1,0,0,0,1,0,0,0,0,0,0,4,0.9411764705882354,1.0980392156862744,1.6,0.8296296296296297,1.0523489932885906,1.2444444444444445,0.9142857142857144,1.0666666666666667,1.2000000000000002,0.9485029940119762,0.998918918918919,1.0630872483221478,gaussian_process,0.8,6
45,7,2021-08-20 16:53:19.890033,0.8,0,97,199,140,20,0,0,0,1,0,0,0,0.8,-1.0577923523278663,0.2968283958946064,-1.6118969915726773,0.11526029455815957,-3.308565850251379,0.002058746577527938,-3.519932067623549,0.001138891645508993,0.27105232599087115,0.27105231456005185,0.27105234262182876,0.27105232414578495,9.527061754808825e-09,9.774559119412255e-09,0.08410552970879709,0.9805601411236312,2.2369064378580106e-09,0,0,0,1,0,0,0,0,0,0,0,0,1,0,0,0,0,0,0,0,1,0,0,0,0,0,1,0,0,0,0,1,0,0,0,0,0,1,0,0,0,0,0,0,0,0,0,1,0,0,0,0,1,0,0,0,1,0,0,0,0,0,0,0,0.5882352941176471,0.6862745098039215,1.0,0.5185185185185185,0.6577181208053691,0.7777777777777777,0.5714285714285714,0.6666666666666666,0.75,0.5928143712574852,0.6243243243243244,0.6644295302013423,gaussian_process,0.5,6
46,7,2021-08-20 16:53:19.890033,0.8,0,97,199,140,20,0,0,0,0,1,0,0,0.8,-0.04794491754493971,0.9620112475703282,0.18709065938058067,0.8525849036119507,-1.347049617773771,0.18594286720359357,-0.48382677980341643,0.6312854288613114,0.36607790247681654,0.00017478043172190858,0.9962162131215729,0.19636540572469363,0.39157674381214086,0.40174926233125086,0.029413111650441297,1.1800094873533418,0.0007827254012227058,0,0,0,1,0,0,0,0,0,0,0,0,1,0,0,0,0,0,0,0,1,0,0,0,0,0,1,0,0,0,0,1,0,0,0,0,0,1,0,0,0,0,0,0,0,0,0,1,0,0,0,0,1,0,0,0,1,0,0,0,0,0,0,3,0.8823529411764708,1.0294117647058825,1.5000000000000002,0.7777777777777779,0.9865771812080538,1.1666666666666667,0.8571428571428573,1.0000000000000002,1.1250000000000002,0.8892215568862278,0.9364864864864867,0.9966442953020136,gaussian_process,0.7500000000000001,6
47,7,2021-08-20 16:53:19.890033,0.8,0,97,199,140,20,0,0,0,0,0,1,0,0.8,0.12966303636459445,0.8975169540128861,0.47955581753527365,0.6342918934513879,-1.0397976538367872,0.30500491237230176,-0.4638617597784849,0.6453931165999287,0.37258941278265945,2.9820349789637226e-05,0.9987761026049793,0.1080183150909858,0.44398465462404546,0.45551864430227446,0.0016650791396447663,1.2562129847468606,3.4253964258823544e-05,0,0,0,1,0,0,0,0,0,0,0,0,1,0,0,0,0,0,0,0,1,0,0,0,0,0,1,0,0,0,0,1,0,0,0,0,0,1,0,0,0,0,0,0,0,0,0,1,0,0,0,0,1,0,0,0,1,0,0,0,0,0,0,3,0.8823529411764708,1.0294117647058825,1.5000000000000002,0.7777777777777779,0.9865771812080538,1.1666666666666667,0.8571428571428573,1.0000000000000002,1.1250000000000002,0.8892215568862278,0.9364864864864867,0.9966442953020136,gaussian_process,0.7500000000000001,6
48,7,2021-08-20 16:53:19.890033,0.8,0,97,199,140,20,0,0,0,0,0,0,1,0.8,-0.4479910670990143,0.6567034576708362,0.3878524731424976,0.7002894183061988,-0.7600023562739343,0.4519428684139548,-0.8549599038721668,0.39793177763330656,0.35600000000000004,0.0,0.98,0.32,0.33748185136389186,0.3462490737209727,0.22010980758282261,1.0790075344289805,0.013068328611552715,0,0,0,1,0,0,0,0,0,0,0,0,1,0,0,0,0,0,0,0,1,0,0,0,0,0,1,0,0,0,0,1,0,0,0,0,0,1,0,0,0,0,0,0,0,0,0,1,0,0,0,0,1,0,0,0,1,0,0,0,0,0,0,5,1.0,1.1666666666666665,1.7,0.8814814814814814,1.1181208053691274,1.3222222222222222,0.9714285714285714,1.1333333333333333,1.2750000000000001,1.0077844311377246,1.0613513513513513,1.1295302013422819,gaussian_process,0.85,6
49,8,2021-08-20 16:53:19.890033,0.8,0,97,199,160,20,1,0,0,0,0,0,0,0.9,2.0495740803870834,0.04735432296383521,-0.8450685312828945,0.40336213118653474,-0.10380042914657749,0.9178736375314701,-1.4947742395368586,0.14323212681242212,0.34032237632311857,0.17767493748976254,0.8933394491136053,0.2469815211147368,0.19061680260303873,0.1955687130144068,0.0008665533951908985,3.099619926821893,0.00032311558607034385,0,0,0,0,0,0,1,0,0,1,0,0,0,0,0,0,0,0,0,1,0,0,0,0,1,0,0,0,0,0,0,0,0,1,0,0,0,0,0,0,0,1,0,0,0,0,0,1,0,0,0,0,1,0,0,0,0,0,1,0,0,0,0,0,0.7857142857142857,0.8508287292817679,1.0,0.8088235294117647,0.943627450980392,1.375,0.7129629629629629,0.9043624161073825,1.0694444444444444,0.7857142857142857,0.9166666666666666,1.03125,random_forest,0.6875,6
50,8,2021-08-20 16:53:19.890033,0.8,0,97,199,160,20,0,1,0,0,0,0,0,0.9,-0.4043925442005709,0.6881912824019496,-0.40646942234853034,0.6866779287766862,-1.1254628677422756,0.2674513066062337,-2.48305515724224,0.01755608294103062,0.15,0.0,1.0,0.0,0.3570714214271425,0.3663475485325232,0.0002544506245485666,3.4924336930924866,8.316843747024905e-08,0,0,0,0,0,0,1,0,0,1,0,0,0,0,0,0,0,0,0,1,0,0,0,0,1,0,0,0,0,0,0,0,0,1,0,0,0,0,0,0,0,1,0,0,0,0,0,1,0,0,0,0,1,0,0,0,0,0,1,0,0,0,0,3,1.0,1.0828729281767955,1.2727272727272727,1.0294117647058825,1.2009803921568627,1.75,0.9074074074074074,1.151006711409396,1.361111111111111,1.0,1.1666666666666667,1.3125,random_forest,0.875,6
51,8,2021-08-20 16:53:19.890033,0.8,0,97,199,160,20,0,0,1,0,0,0,0,0.9,-0.48676065813871433,0.6292238450086529,-2.034086610886053,0.04896672137418899,-1.381274210222759,0.17526353502739644,-2.774878891350794,0.008517986651054464,0.19970362567425065,5.44034935078843e-30,1.0,3.292735447870021e-25,0.39940889909514615,0.40978488410178365,0.010843384430077213,2.8741446233812122,2.91842411570542e-07,0,0,0,0,0,0,1,0,0,1,0,0,0,0,0,0,0,0,0,1,0,0,0,0,1,0,0,0,0,0,0,0,0,1,0,0,0,0,0,0,0,1,0,0,0,0,0,1,0,0,0,0,1,0,0,0,0,0,1,0,0,0,0,2,0.9642857142857143,1.0441988950276242,1.2272727272727273,0.9926470588235294,1.1580882352941175,1.6875,0.875,1.1098993288590604,1.3125,0.9642857142857143,1.125,1.265625,random_forest,0.84375,6
52,8,2021-08-20 16:53:19.890033,0.8,0,97,199,160,20,0,0,0,1,0,0,0,0.9,1.4547064632882853,0.15396171088273256,-0.41260330897585373,0.6822160039550185,-1.458915869057152,0.15280543562561563,-2.6053104693075566,0.013032807202403822,0.25048088338676705,0.0724936727694967,0.8132475464037725,0.15641002531435788,0.2173245766174513,0.2229703109855765,0.002048599403651988,3.037757148963759,0.00010367685172241181,0,0,0,0,0,0,1,0,0,1,0,0,0,0,0,0,0,0,0,1,0,0,0,0,1,0,0,0,0,0,0,0,0,1,0,0,0,0,0,0,0,1,0,0,0,0,0,1,0,0,0,0,1,0,0,0,0,0,1,0,0,0,0,3,1.0,1.0828729281767955,1.2727272727272727,1.0294117647058825,1.2009803921568627,1.75,0.9074074074074074,1.151006711409396,1.361111111111111,1.0,1.1666666666666667,1.3125,random_forest,0.875,6
53,8,2021-08-20 16:53:19.890033,0.8,0,97,199,160,20,0,0,0,0,1,0,0,0.9,-0.04187257290056348,0.9668195244192855,-2.1151813858208106,0.041028106299076154,-1.9778752737074907,0.05522783453455125,-3.6728494003003718,0.0007355182790403132,0.12847029734757584,0.0002307697459391589,0.9978934997629655,0.004356273287105519,0.29398797728545506,0.3016253004681789,1.253042655677328e-06,4.132773036141672,1.5649068529910437e-07,0,0,0,0,0,0,1,0,0,1,0,0,0,0,0,0,0,0,0,1,0,0,0,0,1,0,0,0,0,0,0,0,0,1,0,0,0,0,0,0,0,1,0,0,0,0,0,1,0,0,0,0,1,0,0,0,0,0,1,0,0,0,0,1,0.8571428571428571,0.9281767955801105,1.0909090909090908,0.8823529411764706,1.0294117647058822,1.5,0.7777777777777778,0.9865771812080537,1.1666666666666665,0.8571428571428571,1.0,1.125,random_forest,0.75,6
54,8,2021-08-20 16:53:19.890033,0.8,0,97,199,160,20,0,0,0,0,0,1,0,0.9,-0.400098516984186,0.6913243149944417,-1.9427433864872938,0.05948396959029457,-1.5358781605290543,0.13285365389646617,-3.219356148843315,0.002630858792810231,0.13253899823420914,2.4815230655875952e-05,0.9998861356313036,0.00035949831421151513,0.30490032789564975,0.31282113596460187,9.065943479938809e-06,3.881538882944731,2.1007646466841834e-07,0,0,0,0,0,0,1,0,0,1,0,0,0,0,0,0,0,0,0,1,0,0,0,0,1,0,0,0,0,0,0,0,0,1,0,0,0,0,0,0,0,1,0,0,0,0,0,1,0,0,0,0,1,0,0,0,0,0,1,0,0,0,0,1,0.8571428571428571,0.9281767955801105,1.0909090909090908,0.8823529411764706,1.0294117647058822,1.5,0.7777777777777778,0.9865771812080537,1.1666666666666665,0.8571428571428571,1.0,1.125,random_forest,0.75,6
55,8,2021-08-20 16:53:19.890033,0.8,0,97,199,160,20,0,0,0,0,0,0,1,0.9,-2.1884702189259975,0.03485237055719576,-1.8454634400283303,0.07277298761109811,-1.4724836319496766,0.14912523992817547,-2.62443860067745,0.012430877162986617,0.1705,0.0,0.96,0.06,0.27941859279582665,0.28667742737861496,0.00020391591344827168,3.431520252957542,6.084258529881481e-06,0,0,0,0,0,0,1,0,0,1,0,0,0,0,0,0,0,0,0,1,0,0,0,0,1,0,0,0,0,0,0,0,0,1,0,0,0,0,0,0,0,1,0,0,0,0,0,1,0,0,0,0,1,0,0,0,0,0,1,0,0,0,0,3,1.0,1.0828729281767955,1.2727272727272727,1.0294117647058825,1.2009803921568627,1.75,0.9074074074074074,1.151006711409396,1.361111111111111,1.0,1.1666666666666667,1.3125,random_forest,0.875,6
56,9,2021-08-20 16:53:19.890033,0.8,0,97,199,180,19,1,0,0,0,0,0,0,0.7894736842105263,1.0025498927905077,0.32276952119230073,1.47788188074465,0.14790211116542384,0.5329207795403407,0.5972749763926195,0.7887566815348245,0.4352792718732057,0.4354528069423648,0.14447678647500575,0.8438282118025591,0.43957597631287015,0.20092712792163386,0.2064330001560764,0.604038036558507,0.5336363993334351,0.27311214804649353,0,0,0,0,0,0,1,0,0,0,1,0,0,0,0,1,0,0,0,0,0,0,0,0,0,0,0,1,0,0,1,0,0,0,0,0,0,0,0,0,1,0,0,0,0,1,0,0,0,0,0,0,0,0,1,0,0,0,0,0,0,0,1,1,0.8592592592592591,0.9485981308411215,1.074074074074074,0.753246753246753,0.8156705173279757,0.958677685950413,0.7754010695187165,0.904634581105169,1.318181818181818,0.6835016835016834,0.86699206833435,1.0252525252525249,random_forest,0.659090909090909,1
57,9,2021-08-20 16:53:19.890033,0.8,0,97,199,180,19,0,1,0,0,0,0,0,0.7894736842105263,-0.35003405682364447,0.7283528330319289,1.2202103187603797,0.23010543829883276,0.8134137399640929,0.42118466689636813,0.10402825453707192,0.9177087820923338,0.3157894736842105,0.0,1.0,0.0,0.464829519280413,0.4775669329409193,0.02237421495077297,1.6573702557890746,3.566635314200539e-06,0,0,0,0,0,0,1,0,0,0,1,0,0,0,0,1,0,0,0,0,0,0,0,0,0,0,0,1,0,0,1,0,0,0,0,0,0,0,0,0,1,0,0,0,0,1,0,0,0,0,0,0,0,0,1,0,0,0,0,0,0,0,1,3,1.0,1.1039719626168227,1.2500000000000002,0.8766233766233766,0.9492717227523858,1.115702479338843,0.9024064171122995,1.052807486631016,1.5340909090909092,0.7954545454545455,1.0089993898718732,1.1931818181818181,random_forest,0.7670454545454546,1
58,9,2021-08-20 16:53:19.890033,0.8,0,97,199,180,19,0,0,1,0,0,0,0,0.7894736842105263,-0.4973293487640558,0.6219808685187906,1.1811211774749788,0.24509128458704293,-0.7857043844969369,0.43704355085519586,-0.18197735806248486,0.8565938416417894,0.37095017837788496,1.7903861986672062e-29,1.0,5.501319881810018e-07,0.48055970021889777,0.4937281575486578,0.00032507540163763984,1.1688023609763452,7.66231278248597e-06,0,0,0,0,0,0,1,0,0,0,1,0,0,0,0,1,0,0,0,0,0,0,0,0,0,0,0,1,0,0,1,0,0,0,0,0,0,0,0,0,1,0,0,0,0,1,0,0,0,0,0,0,0,0,1,0,0,0,0,0,0,0,1,0,0.7999999999999998,0.883177570093458,1.0,0.7012987012987012,0.7594173782019085,0.8925619834710742,0.7219251336898395,0.8422459893048126,1.227272727272727,0.6363636363636362,0.8071995118974983,0.9545454545454544,random_forest,0.6136363636363635,1
59,9,2021-08-20 16:53:19.890033,0.8,0,97,199,180,19,0,0,0,1,0,0,0,0.7894736842105263,0.1122095465875523,0.9112806100350278,2.290388384168617,0.027795922692831918,2.6297289304700797,0.012377047158004771,0.9474490512803098,0.3495572229401106,0.43572394998986885,0.1013112685939177,0.8519610063386835,0.3472313723480056,0.2727666944554104,0.280241138474082,0.04704707832353625,0.8784527949516201,0.010437889955937862,0,0,0,0,0,0,1,0,0,0,1,0,0,0,0,1,0,0,0,0,0,0,0,0,0,0,0,1,0,0,1,0,0,0,0,0,0,0,0,0,1,0,0,0,0,1,0,0,0,0,0,0,0,0,1,0,0,0,0,0,0,0,1,2,0.9407407407407405,1.0385514018691588,1.1759259259259258,0.8246753246753246,0.8930185836263183,1.049586776859504,0.8489304812834223,0.9904188948306593,1.443181818181818,0.7483164983164982,0.9492068334350211,1.1224747474747472,random_forest,0.721590909090909,1
60,9,2021-08-20 16:53:19.890033,0.8,0,97,199,180,19,0,0,0,0,1,0,0,0.7894736842105263,0.13418096908393695,0.8940068305116489,2.4916798575716834,0.01732289160226943,0.4252358113514711,0.673127856682195,0.6153673628048283,0.5420789403881658,0.4225595573640407,0.0005581983992281197,0.9985890695755985,0.22663058341967085,0.41635181334294324,0.4277608247221275,0.00209017401433164,0.8337436744364222,0.0007465363596566021,0,0,0,0,0,0,1,0,0,0,1,0,0,0,0,1,0,0,0,0,0,0,0,0,0,0,0,1,0,0,1,0,0,0,0,0,0,0,0,0,1,0,0,0,0,1,0,0,0,0,0,0,0,0,1,0,0,0,0,0,0,0,1,2,0.9407407407407405,1.0385514018691588,1.1759259259259258,0.8246753246753246,0.8930185836263183,1.049586776859504,0.8489304812834223,0.9904188948306593,1.443181818181818,0.7483164983164982,0.9492068334350211,1.1224747474747472,random_forest,0.721590909090909,1
61,9,2021-08-20 16:53:19.890033,0.8,0,97,199,180,19,0,0,0,0,0,1,0,0.7894736842105263,0.031394492476099,0.9751283461709798,2.208302085388492,0.033498885514901725,0.2144707124476301,0.8313576681362491,0.7081466694813543,0.4832917505729343,0.4035501418781011,7.018285228195798e-05,0.9993752148852358,0.20929064813396417,0.43349518606885107,0.4453739658704112,0.0018042393123439214,1.0430534729933063,0.00017794720770325512,0,0,0,0,0,0,1,0,0,0,1,0,0,0,0,1,0,0,0,0,0,0,0,0,0,0,0,1,0,0,1,0,0,0,0,0,0,0,0,0,1,0,0,0,0,1,0,0,0,0,0,0,0,0,1,0,0,0,0,0,0,0,1,2,0.9407407407407405,1.0385514018691588,1.1759259259259258,0.8246753246753246,0.8930185836263183,1.049586776859504,0.8489304812834223,0.9904188948306593,1.443181818181818,0.7483164983164982,0.9492068334350211,1.1224747474747472,random_forest,0.721590909090909,1
62,9,2021-08-20 16:53:19.890033,0.8,0,97,199,180,19,0,0,0,0,0,0,1,0.7894736842105263,-0.3865588217008786,0.7013583376894756,2.2429230039953003,0.030977240350439667,0.3902648654357306,0.6985785212191362,0.780931195491118,0.4398111106410867,0.39947368421052637,0.0,0.96,0.35,0.33994540868561024,0.34926070625776456,0.1479725222580999,0.9512521445449972,0.02565787173807621,0,0,0,0,0,0,1,0,0,0,1,0,0,0,0,1,0,0,0,0,0,0,0,0,0,0,0,1,0,0,1,0,0,0,0,0,0,0,0,0,1,0,0,0,0,1,0,0,0,0,0,0,0,0,1,0,0,0,0,0,0,0,1,1,0.8592592592592591,0.9485981308411215,1.074074074074074,0.753246753246753,0.8156705173279757,0.958677685950413,0.7754010695187165,0.904634581105169,1.318181818181818,0.6835016835016834,0.86699206833435,1.0252525252525249,random_forest,0.659090909090909,1
